 VARIABLES="omega" "Re" "Im" 
   1.2591554072194682E-002   1.2541388981648452E-002   4.9937297026846945E-005
   2.5183108144389364E-002   2.5082774417965144E-002   5.0034039946430497E-005
   3.7774662216584050E-002   3.7624152754697861E-002   5.0190361125996720E-005
   5.0366216288778728E-002   5.0165520398228511E-002   5.0408285220730676E-005
   6.2957770360973414E-002   6.2675219786397396E-002  -3.0548064870429561E-003
   7.5549324433168100E-002   7.5248208993492924E-002   5.1029200243607146E-005
   8.8140878505362771E-002   8.7789522490507949E-002   5.1431861887164140E-005
  0.10073243257755746       0.10033081037557731        5.1895530173800590E-005
  0.11332398664975214       0.11287206890235375        5.2419364092896404E-005
  0.12591554072194683       0.12535003229249322       -3.0546657467869377E-003
  0.13850709479414150       0.13795450181935515        5.3594398316528343E-005
  0.15109864886633620       0.15049577552758678        5.3993940656109655E-005
  0.16369020293853087       0.16303748232202075        5.3422324874660957E-005
  0.17628175701072554       0.17558000988879338        5.1254573289501335E-005
  0.18887331108292024       0.18812268087101441        4.9112866334453001E-005
  0.20146486515511491       0.20066499791185130        4.7927731083582674E-005
  0.21405641922730961       0.21320714052184483        4.7233363350349205E-005
  0.22664797329950429       0.22574926870327294        4.6677695621871961E-005
  0.23923952737169896       0.23829144054193158        4.6129734932464487E-005
  0.25183108144389366       0.25070768930065906       -3.0707132997817312E-003
  0.26442263551608836       0.26337599032488435        4.4903096474979034E-005
  0.27701418958828300       0.27591838625873405        4.4199330781739234E-005
  0.28960574366047770       0.28846086976323204        4.3428480030008383E-005
  0.30219729773267240       0.30085280096228523       -3.0787593853177113E-003
  0.31478885180486704       0.31338934232149446       -3.0810854319285627E-003
  0.32738040587706174       0.32608889965650051        4.0666107239276114E-005
  0.33997195994925644       0.33846278641652161       -3.0861667788165434E-003
  0.35256351402145109       0.35117479309390998        3.8398288738756253E-005
  0.36515506809364578       0.36353674363372274       -3.0918621636720229E-003
  0.37774662216584048       0.37626117186651065        3.5741135720022984E-005
  0.39033817623803513       0.38861124722170193       -3.0982219536947698E-003
  0.40292973031022983       0.40134808176787917        3.2652829041252164E-005
  0.41552128438242453       0.41389175023132518        3.0933758842780744E-005
  0.42811283845461923       0.42643556864713572        2.9090735248700686E-005
  0.44070439252681387       0.43897954267369266        2.7118026927366295E-005
  0.45329594659900857       0.45152367787606101        2.5009248427758383E-005
  0.46588750067120327       0.46383833047825729       -3.1218202703201517E-003
  0.47847905474339791       0.47661245313721756        2.0354770837980718E-005
  0.49107060881559261       0.48915710322435590        1.7792905654732549E-005
  0.50366216288778731       0.50145404801278626       -3.1365485622891478E-003
  0.51625371695998201       0.51399296337295708       -3.1419559988725343E-003
  0.52884527103217671       0.52679215990425354        9.0595888651061495E-006
  0.54143682510437130       0.53933756337658589        5.7623333167211978E-006
  0.55402837917656600       0.55188316866184894        2.2517859056245841E-006
  0.56661993324876070       0.56442898282704035       -1.4884263765990733E-006
  0.57921148732095540       0.57697501595886824       -5.4796580801159103E-006
  0.59180304139315010       0.58952131976745525       -9.7938623357658379E-006
  0.60439459546534480       0.60177078181504684       -3.1884756942453011E-003
  0.61698614953753939       0.61431157044736640       -3.1969240966784737E-003
  0.62957770360973409       0.62685290927995829       -3.2062552021971330E-003
  0.64216925768192878       0.63971105054839184       -3.3092228219459187E-005
  0.65476081175412348       0.65226088950211580       -4.2424001958610912E-005
  0.66735236582631818       0.66448438577702684       -3.2461661884881643E-003
  0.67994391989851288       0.67703388798380360       -3.2687720525243743E-003
  0.69253547397070758       0.68993079035009552       -1.0339908527875162E-004
  0.70512702804290217       0.70250181078387186       -1.4884294524275020E-004
  0.71771858211509687       0.71508366857736916       -2.1523964171663544E-004
  0.73031013618729157       0.72767225777762556       -2.9744561173899889E-004
  0.74290169025948627       0.74025765940578547       -3.7882546491748521E-004
  0.75549324433168097       0.75283420176779703       -4.4886627904179078E-004
  0.76808479840387567       0.76540252722304125       -5.0796673975889140E-004
  0.78067635247607026       0.77796494847166453       -5.5961201064445886E-004
  0.79326790654826496       0.79013038565610316       -3.8401591775128192E-003
  0.80585946062045966       0.80307955364522920       -6.5271705508624257E-004
  0.81845101469265436       0.81563416968554769       -6.9838418237381345E-004
  0.83104256876484905       0.82777529902202984       -3.9943665140992858E-003
  0.84363412283704375       0.84032252292346132       -4.0504349811888727E-003
  0.85622567690923845       0.85287068252836862       -4.1128265346662843E-003
  0.86881723098143304       0.86585262566796950       -9.1909360470878864E-004
  0.88140878505362774       0.87841752749148105       -1.0152823209778547E-003
  0.89400033912582244       0.89109625703765838       -1.4303963478635405E-003
  0.90659189319801714       0.90358988551130826       -1.3383034339061277E-003
  0.91918344727021184       0.91616067018946346       -1.5163311684419441E-003
  0.93177500134240654       0.92877116694377115       -1.8362121446268993E-003
  0.94436655541460113       0.94092014970391569       -5.5348700093595217E-003
  0.95695810948679583       0.95400736713296153       -2.6472510749576358E-003
  0.96954966355899053       0.96612337321603958       -6.3837995399189358E-003
  0.98214121763118523       0.97919580708488441       -3.4657912155755307E-003
  0.99473277170337993       0.99176961164916888       -3.8679867713586891E-003
   1.0073243257755746        1.0043331627803784       -4.2813442928150225E-003
   1.0199158798477692        1.0163748498599809       -8.0740835407921516E-003
   1.0325074339199640        1.0294349383938635       -5.1882215526747825E-003
   1.0450989879921586        1.0419724574950036       -5.6986340612659595E-003
   1.0576905420643534        1.0545029917528610       -6.2590283466879325E-003
   1.0702820961365480        1.0670221659751038       -6.8700403375233331E-003
   1.0828736502087426        1.0789842195482331       -1.0957132579989487E-002
   1.0954652042809374        1.0920203896759915       -8.2766789430218785E-003
   1.1080567583531320        1.1044949516859124       -9.0800959489722045E-003
   1.1206483124253268        1.1163916481712333       -1.3439052506670315E-002
   1.1332398664975214        1.1293825584370505       -1.0929214801223089E-002
   1.1458314205697160        1.1417887741176527       -1.1982482964370949E-002
   1.1584229746419108        1.1541652788563912       -1.3136769891123062E-002
   1.1710145287141054        1.1665077369994945       -1.4398644279262615E-002
   1.1836060827863002        1.1788114404548842       -1.5784231777269477E-002
   1.1961976368584948        1.1905309370805572       -2.1113786724802394E-002
   1.2087891909306896        1.2032794556592672       -1.9011688892919473E-002
   1.2213807450028842        1.2149049547836699       -2.4999839042275256E-002
   1.2339722990750788        1.2269027080028094       -2.7220068841643810E-002
   1.2465638531472736        1.2395731370032015       -2.5299550321183438E-002
   1.2591554072194682        1.2516565014504561       -2.6558545826536967E-002
   1.2717469612916630        1.2635693207369052       -2.9716860837831205E-002
   1.2843385153638576        1.2747665795271732       -3.6053227417509374E-002
   1.2969300694360524        1.2871543838413542       -3.4316261946128426E-002
   1.3095216235082470        1.2982153968229877       -4.1096750949881695E-002
   1.3221131775804416        1.3097169188179929       -4.3990672990414696E-002
   1.3347047316526364        1.3216682565419795       -4.3180659661313556E-002
   1.3472962857248310        1.3329278206038750       -4.6622033381595568E-002
   1.3598878397970258        1.3440488358925515       -5.0304827036628169E-002
   1.3724793938692204        1.3544096162983212       -5.8103337198909547E-002
   1.3850709479414152        1.3652188542882018       -6.2236731676800820E-002
   1.3976625020136098        1.3764646910592597       -6.2864350090905963E-002
   1.4102540560858043        1.3862857171414953       -7.1389812312008097E-002
   1.4228456101579992        1.3971838763967594       -7.2538867940114646E-002
   1.4354371642301937        1.4072393666996357       -7.7807450475536388E-002
   1.4480287183023886        1.4164169484884681       -8.7224909868898706E-002
   1.4606202723745831        1.4266849448298475       -8.9207545474916591E-002
   1.4732118264467777        1.4353801741522105       -9.9233452108042713E-002
   1.4858033805189725        1.4451611035457512      -0.10180916565693893     
   1.4983949345911671        1.4533270570865990      -0.11247372097577019     
   1.5109864886633619        1.4625700299259983      -0.11565846351604187     
   1.5235780427355565        1.4708434150954186      -0.12306295808876649     
   1.5361695968077513        1.4788135017054633      -0.13079097112083041     
   1.5487611508799459        1.4864681711229537      -0.13884698069600290     
   1.5613527049521405        1.4937965949998557      -0.14723442196026379     
   1.5739442590243353        1.5001042548704009      -0.15991970718457543     
   1.5865358130965299        1.5074342758475563      -0.16501093198650926     
   1.5991273671687247        1.5130385892536071      -0.17839796809276864     
   1.6117189212409193        1.5196460195190296      -0.18411194656659222     
   1.6243104753131141        1.5251935459481651      -0.19415243821872097     
   1.6369020293853087        1.5303575879237021      -0.20451560717143022     
   1.6494935834575033        1.5351296387220910      -0.21519938371316813     
   1.6620851375296981        1.5395016661507877      -0.22620091399006570     
   1.6746766916018927        1.5434699500223434      -0.23750916665372185     
   1.6872682456740875        1.5470230755680183      -0.24912845344868231     
   1.6998597997462821        1.5501597143023313      -0.26104424716937069     
   1.7124513538184769        1.5528741062616795      -0.27325123305173565     
   1.7250429078906715        1.5551565895421817      -0.28575158141727919     
   1.7376344619628661        1.5570092601935728      -0.29852842169040111     
   1.7502260160350609        1.5584317554407132      -0.31157325856992868     
   1.7628175701072555        1.5594386005139018      -0.32486014593308926     
   1.7754091241794503        1.5598639974194470      -0.34063327473850274     
   1.7880006782516449        1.5597506183394678      -0.35548303701119072     
   1.8005922323238395        1.5600914138694242      -0.36581593946344271     
   1.8131837863960343        1.5587798861342024      -0.38301524022172367     
   1.8257753404682289        1.5582107771274156      -0.39439356840796008     
   1.8383668945404237        1.5566798485872171      -0.40888382311374472     
   1.8509584486126183        1.5547357013175456      -0.42352284911354210     
   1.8635500026848131        1.5523786282557750      -0.43830578364552747     
   1.8761415567570077        1.5496127941488158      -0.45322134558341376     
   1.8887331108292023        1.5464489208219916      -0.46824940636975354     
   1.9013246649013971        1.5428882076601276      -0.48338170470203251     
   1.9139162189735917        1.5377212482680285      -0.50310386616621161     
   1.9265077730457865        1.5333083641559009      -0.51855435941151262     
   1.9390993271179811        1.5299512907145258      -0.52918885047350872     
   1.9516908811901759        1.5249239335471101      -0.54453238668827675     
   1.9642824352623705        1.5195652138460591      -0.55987414397561419     
   1.9768739893345650        1.5138698782152065      -0.57521330884166955     
   1.9894655434067599        1.5078613796098868      -0.59051699190138707     
   2.0020570974789544        1.5015353608040041      -0.60578041252449011     
   2.0146486515511492        1.4926236992079209      -0.62718492562781714     
   2.0272402056233441        1.4878270924965113      -0.63624074374912376     
   2.0398317596955384        1.4780639026997464      -0.65777149557536641     
   2.0524233137677332        1.4722185623561690      -0.66698741204815237     
   2.0650148678399280        1.4634309223292901      -0.68269781432453747     
   2.0776064219121224        1.4529734649170716      -0.70316664187482969     
   2.0901979759843172        1.4445509149750797      -0.71431243533389777     
   2.1027895300565120        1.4347251297717736      -0.73354305162880129     
   2.1153810841287068        1.4255015165124247      -0.74883097316438052     
   2.1279726382009012        1.4176616221829215      -0.75836836851905975     
   2.1405641922730960        1.4080379978271782      -0.77290272192648357     
   2.1531557463452908        1.3978772622857594      -0.78753138159957659     
   2.1657473004174852        1.3848862394829851      -0.80911502994395790     
   2.1783388544896800        1.3739387960756293      -0.82375251846330533     
   2.1909304085618748        1.3651370569968497      -0.83120655290791734     
   2.2035219626340692        1.3536769365958858      -0.84551722517621875     
   2.2161135167062640        1.3419918626082774      -0.85966131804863721     
   2.2287050707784588        1.3279363017322980      -0.88033781998451355     
   2.2412966248506536        1.3159242378173397      -0.89400266759043001     
   2.2538881789228480        1.3057243273261829      -0.90098380402408329     
   2.2664797329950428        1.2913331149482450      -0.92074733729989111     
   2.2790712870672376        1.2787582362660357      -0.93382645226988314     
   2.2916628411394320        1.2677910863863533      -0.94052574032997072     
   2.3042543952116268        1.2548065017708432      -0.95328903996114367     
   2.3168459492838216        1.2416571597190778      -0.96584092448613867     
   2.3294375033560164        1.2283537321006446      -0.97817415302292399     
   2.3420290574282108        1.2133082595615980      -0.99615604720785544     
   2.3546206115004056        1.2012918493063740       -1.0021821955573649     
   2.3672121655726004        1.1875698362287663       -1.0138375289981105     
   2.3798037196447948        1.1721524195784343       -1.0309974712183054     
   2.3923952737169896        1.1581376276816850       -1.0421765619924519     
   2.4049868277891844        1.1455621360739199       -1.0474527471738120     
   2.4175783818613792        1.1296611768815334       -1.0638838579197123     
   2.4301699359335736        1.1168648818604641       -1.0687220062032219     
   2.4427614900057684        1.1022744008270295       -1.0790235598091007     
   2.4553530440779632        1.0875081255008738       -1.0891021335976601     
   2.4679445981501575        1.0708037602220550       -1.1046522407239434     
   2.4805361522223524        1.0571070769062263       -1.1087248116559671     
   2.4931277062945472        1.0403001482334477       -1.1235797926211335     
   2.5057192603667420        1.0256640671052994       -1.1276422424059236     
   2.5183108144389363        1.0100622471480003       -1.1366519712018952     
   2.5309023685111312       0.99449132687790032       -1.1453697546937924     
   2.5434939225833260       0.97875912248390196       -1.1538688713849810     
   2.5560854766555203       0.96185213911668788       -1.1673339959339915     
   2.5686770307277151       0.94673517371043892       -1.1702531102747686     
   2.5812685847999099       0.92950685286910217       -1.1832810926443211     
   2.5938601388721048       0.91410733919817766       -1.1857717440169457     
   2.6064516929442991       0.89759533075911735       -1.1931970111086905     
   2.6190432470164939       0.88096825683754354       -1.2003944259297372     
   2.6316348010886887       0.86327923776160875       -1.2124155501502352     
   2.6442263551608831       0.84725205663772629       -1.2141417869076234     
   2.6568179092330779       0.82932913983727619       -1.2256604911016760     
   2.6694094633052727       0.81289513076386299       -1.2270278499266929     
   2.6820010173774675       0.79477189467326093       -1.2380259802994422     
   2.6945925714496619       0.77725920843814911       -1.2438916396150941     
   2.7071841255218567       0.76019836331328505       -1.2447570399584669     
   2.7197756795940515       0.74177650376402038       -1.2550096670468609     
   2.7323672336662459       0.72378821654583814       -1.2602528754163944     
   2.7449587877384407       0.70563188168008850       -1.2652868038610119     
   2.7575503418106355       0.68778869217816430       -1.2654264163737590     
   2.7701418958828303       0.66924284458723160       -1.2700779348089068     
   2.7827334499550247       0.65051182968665078       -1.2745242196838173     
   2.7953250040272195       0.63158399898859419       -1.2787686566996670     
   2.8079165580994143       0.61247040709423051       -1.2828084925682364     
   2.8205081121716087       0.59314922911037116       -1.2866472441776078     
   2.8330996662438035       0.57329008689688021       -1.2948190226527883     
   2.8456912203159983       0.55355880584940942       -1.2982352360378087     
   2.8582827743881927       0.53388176866812198       -1.2969601122337888     
   2.8708743284603875       0.51340234996292200       -1.3044712060217314     
   2.8834658825325823       0.49321190667852083       -1.3028345488525555     
   2.8960574366047771       0.47250025077708807       -1.3054720016315549     
   2.9086489906769715       0.45151939055027829       -1.3079098289063096     
   2.9212405447491663       0.43027619174379933       -1.3101447647729347     
   2.9338320988213611       0.40874164516209310       -1.3121785860015904     
   2.9464236528935555       0.38674734400155542       -1.3183900715455736     
   2.9590152069657503       0.36478473076022883       -1.3156329313533368     
   2.9716067610379451       0.34218868295272925       -1.3214094441574087     
   2.9841983151101399       0.31955243304483666       -1.3182585394318407     
   2.9967898691823343       0.29631115561689847       -1.3235931860900496     
   3.0093814232545291       0.27295110813799339       -1.3200341608568167     
   3.0219729773267239       0.24909895110368790       -1.3205953459751028     
   3.0345645313989182       0.22485561956054878       -1.3209336516182901     
   3.0471560854711131       0.20013160377126904       -1.3253541005627258     
   3.0597476395433079       0.17513830429368218       -1.3209218132709168     
   3.0723391936155027       0.14962226355218558       -1.3205608264487370     
   3.0849307476876970       0.12359436096838482       -1.3242507944226309     
   3.0975223017598918        9.7163500391763510E-002  -1.3190959253233490     
   3.1101138558320867        7.0162251564558895E-002  -1.3179764622752317     
   3.1227054099042810        4.2563825607694360E-002  -1.3208763746351120     
   3.1352969639764758        1.4341315675927389E-002  -1.3149162430633932     
