 VARIABLES="omega" "Re" "Im" 
   6.3466520020456024E-002   6.2212801594303195E-002   4.2585700932161870E-004
  0.12693304004091205       0.12441993541954723        2.2607006885873055E-004
  0.19039956006136807       0.18662601290634107        2.4312383442675654E-004
  0.25386608008182410       0.24887076388691301        1.9880317117990974E-004
  0.31733260010228015       0.31111408827820025        1.7463518627328255E-004
  0.38079912012273615       0.37336976157932061        1.4460316042313136E-004
  0.44426564014319220       0.43565056187402046        9.3681963404529763E-005
  0.50773216016364819       0.49802818384514208       -4.8481689488111854E-005
  0.57119868018410425       0.56370740024317589       -3.7998591637264777E-003
  0.63466520020456030       0.62335511454195180       -1.1572656568749862E-003
  0.69813172022501624       0.69590511819979406       -1.7142924553011803E-002
  0.76159824024547229       0.75078279267892345       -6.9079925827318341E-003
  0.82506476026592834       0.81099025608933073       -3.6685600474107255E-003
  0.88853128028638440       0.87348882924341020       -5.0914958572111863E-003
  0.95199780030684034       0.93842165580859938       -1.6588123682422719E-002
   1.0154643203272964       0.99875276268236679       -1.3682413298599722E-002
   1.0789308403477524        1.0606657118514922       -2.0472992175573218E-002
   1.1423973603682085        1.1243543928086948       -8.5920804848396662E-002
   1.2058638803886645        1.1810556979991040       -4.4184358278519284E-002
   1.2693304004091206        1.2387769459384155       -6.2435331344731962E-002
   1.3327969204295764        1.2923490431697529       -8.9243537290467120E-002
   1.3962634404500325        1.3218533623009463      -0.20747031584627032     
   1.4597299604704885        1.3866163121506014      -0.15054054624962659     
   1.5231964804909446        1.4234323746518736      -0.19541501032404593     
   1.5866630005114006        1.4531596571563219      -0.24525545358438464     
   1.6501295205318567        1.4739242005722777      -0.30277055731683600     
   1.7135960405523127        1.4610793942198539      -0.40890989134269634     
   1.7770625605727688        1.4882521198123724      -0.43341225758872287     
   1.8405290805932246        1.4819722351964575      -0.50379192996207067     
   1.9039956006136807        1.4676481216792949      -0.57502421225217248     
   1.9674621206341367        1.4471597592130536      -0.64466511646011471     
   2.0309286406545928        1.4195477108530430      -0.71181988355823500     
   2.0943951606750488       0.74607642141227615       -1.2923941205456486     
   2.1578616806955049        1.3283448623526761      -0.85306215020036569     
   2.2213282007159609        1.2727142216785428      -0.91934682393987055     
   2.2847947207364170        1.1804915884571956       -1.0027651053148332     
   2.3482612407568730        1.1484631977882178       -1.0382778531155146     
   2.4117277607773291        1.0823944963754750       -1.0889877932686680     
   2.4751942807977851        1.0110916633855824       -1.1345510860937660     
   2.5386608008182412       0.93460650665900302       -1.1756864399824150     
   2.6021273208386972       0.85682850499649932       -1.2107642621590693     
   2.6655938408591529       0.77545711984902133       -1.2407535150555506     
   2.7290603608796089       0.69033154527539198       -1.2658558331940690     
   2.7925268809000650       0.48922568073146044       -1.3088764186824959     
   2.8559934009205210       0.43184307894363555       -1.3141646157024884     
   2.9194599209409771       0.40932725715847407       -1.3125651575407762     
   2.9829264409614331       0.30392003657354821       -1.3189673980946406     
   3.0463929609818892       0.18166707528997991       -1.3210535644276864     
   3.1098594810023452        6.5756434596030020E-002  -1.3169389956555488     
