 VARIABLES="omega" "Re" "Im" 
   1.2591554072194682E-002   1.2541388981648452E-002   4.9937297026846945E-005
   2.5183108144389364E-002   2.5082774417965144E-002   5.0034039946430497E-005
   3.7774662216584050E-002   3.7624152754697861E-002   5.0190361125996720E-005
   5.0366216288778728E-002   5.0140195468869705E-002  -3.0548245465250390E-003
   6.2957770360973414E-002   6.2706873709016425E-002   5.0687963523545419E-005
   7.5549324433168100E-002   7.5210227755520470E-002  -3.0547847898556614E-003
   8.8140878505362771E-002   8.7789522490507949E-002   5.1431861887164140E-005
  0.10073243257755746       0.10033081037557731        5.1895530173800590E-005
  0.11332398664975214       0.11287206890235375        5.2419364092896404E-005
  0.12591554072194683       0.12541329585709557        5.2998063942629732E-005
  0.13850709479414150       0.13795450181935515        5.3594398316528343E-005
  0.15109864886633620       0.15049577552758678        5.3993940656109655E-005
  0.16369020293853087       0.16295477399833980       -3.0551236504395159E-003
  0.17628175701072554       0.17558000988879338        5.1254573289501335E-005
  0.18887331108292024       0.18812268087101441        4.9112866334453001E-005
  0.20146486515511491       0.20056281667231135       -3.0624933764377082E-003
  0.21405641922730961       0.21320714052184483        4.7233363350349205E-005
  0.22664797329950429       0.22574926870327294        4.6677695621871961E-005
  0.23923952737169896       0.23817160896495648       -3.0689372897747804E-003
  0.25183108144389366       0.25083367725524192        4.5544075608439529E-005
  0.26442263551608836       0.26324382744361163       -3.0725568220377991E-003
  0.27701418958828300       0.27591838625873405        4.4199330781739234E-005
  0.28960574366047770       0.28831637271735505       -3.0765677647080080E-003
  0.30219729773267240       0.30085280096228523       -3.0787593853177113E-003
  0.31478885180486704       0.31354612071514198        4.1666954370609102E-005
  0.32738040587706174       0.32608889965650051        4.0666107239276114E-005
  0.33997195994925644       0.33863178855607373        3.9578239982951588E-005
  0.35256351402145109       0.35117479309390998        3.8398288738756253E-005
  0.36515506809364578       0.36371791895847849        3.7120958254644122E-005
  0.37774662216584048       0.37626117186651065        3.5741135720022984E-005
  0.39033817623803513       0.38861124722170193       -3.0982219536947698E-003
  0.40292973031022983       0.40134808176787917        3.2652829041252164E-005
  0.41552128438242453       0.41389175023132518        3.0933758842780744E-005
  0.42811283845461923       0.42643556864713572        2.9090735248700686E-005
  0.44070439252681387       0.43897954267369266        2.7118026927366295E-005
  0.45329594659900857       0.45152367787606101        2.5009248427758383E-005
  0.46588750067120327       0.46383833047825729       -3.1218202703201517E-003
  0.47847905474339791       0.47661245313721756        2.0354770837980718E-005
  0.49107060881559261       0.48915710322435590        1.7792905654732549E-005
  0.50366216288778731       0.50170193461630042        1.5063002989965344E-005
  0.51625371695998201       0.51424695199162795        1.2155660433902239E-005
  0.52884527103217671       0.52653205511739687       -3.1476328236600655E-003
  0.54143682510437130       0.53933756337658589        5.7623333167211978E-006
  0.55402837917656600       0.55188316866184894        2.2517859056245841E-006
  0.56661993324876070       0.56415043197083614       -3.1664236981762389E-003
  0.57921148732095540       0.57697501595886824       -5.4796580801159103E-006
  0.59180304139315010       0.58952131976745525       -9.7938623357658379E-006
  0.60439459546534480       0.60206794564944366       -1.4512038700854344E-005
  0.61698614953753939       0.61461497922331665       -1.9767723197714427E-005
  0.62957770360973409       0.62716258419179671       -2.5811114261062025E-005
  0.64216925768192878       0.63971105054839184       -3.3092228219459187E-005
  0.65476081175412348       0.65226088950211580       -4.2424001958610912E-005
  0.66735236582631818       0.66481298960854274       -5.5266614584633018E-005
  0.67994391989851288       0.67736884559835464       -7.4181755532511161E-005
  0.69253547397070758       0.68993079035009552       -1.0339908527875162E-004
  0.70512702804290217       0.70250181078387186       -1.4884294524275020E-004
  0.71771858211509687       0.71472951740739099       -3.4215575470015408E-003
  0.73031013618729157       0.72767225777762556       -2.9744561173899889E-004
  0.74290169025948627       0.73989060571812193       -3.5935414406748421E-003
  0.75549324433168097       0.75246066704328962       -3.6679673673959794E-003
  0.76808479840387567       0.76540252722304125       -5.0796673975889140E-004
  0.78067635247607026       0.77796494847166453       -5.5961201064445886E-004
  0.79326790654826496       0.79052347233652831       -6.0705123169172456E-004
  0.80585946062045966       0.80307955364522920       -6.5271705508624257E-004
  0.81845101469265436       0.81563416968554769       -6.9838418237381345E-004
  0.83104256876484905       0.82777529902202984       -3.9943665140992858E-003
  0.84363412283704375       0.84032252292346132       -4.0504349811888727E-003
  0.85622567690923845       0.85329592431159362       -8.5178360838098681E-004
  0.86881723098143304       0.86542216999891575       -4.1879920566626292E-003
  0.88140878505362774       0.87841752749148105       -1.0152823209778547E-003
  0.89400033912582244       0.89071922650377167       -4.7970626265711981E-003
  0.90659189319801714       0.90358988551130826       -1.3383034339061277E-003
  0.91918344727021184       0.91616067018946346       -1.5163311684419441E-003
  0.93177500134240654       0.92877116694377115       -1.8362121446268993E-003
  0.94436655541460113       0.94139184136247567       -2.2285897442541874E-003
  0.95695810948679583       0.95352832181739033       -5.9603646402371065E-003
  0.96954966355899053       0.96660949523551376       -3.0632056702670357E-003
  0.98214121763118523       0.97870275243400173       -6.7943856886552700E-003
  0.99473277170337993       0.99176961164916888       -3.8679867713586891E-003
   1.0073243257755746        1.0043331627803784       -4.2813442928150225E-003
   1.0199158798477692        1.0168881789617015       -4.7183585982292229E-003
   1.0325074339199640        1.0289150274075849       -8.5542252076096625E-003
   1.0450989879921586        1.0419724574950036       -5.6986340612659595E-003
   1.0576905420643534        1.0545029917528610       -6.2590283466879325E-003
   1.0702820961365480        1.0670221659751038       -6.8700403375233331E-003
   1.0828736502087426        1.0795284910308101       -7.5400495798899642E-003
   1.0954652042809374        1.0920203896759915       -8.2766789430218785E-003
   1.1080567583531320        1.1044949516859124       -9.0800959489722045E-003
   1.1206483124253268        1.1169501903176768       -9.9641402210834708E-003
   1.1332398664975214        1.1288208893457676       -1.4430862782894328E-002
   1.1458314205697160        1.1412253908916756       -1.5517118315309237E-002
   1.1584229746419108        1.1541652788563912       -1.3136769891123062E-002
   1.1710145287141054        1.1665077369994945       -1.4398644279262615E-002
   1.1836060827863002        1.1788114404548842       -1.5784231777269477E-002
   1.1961976368584948        1.1910708627397817       -1.7310327712158083E-002
   1.2087891909306896        1.2027547756159840       -2.2941819327668356E-002
   1.2213807450028842        1.2154294244247070       -2.0942154170178494E-002
   1.2339722990750788        1.2275146537175403       -2.3165112208801329E-002
   1.2465638531472736        1.2395731370032015       -2.5299550321183438E-002
   1.2591554072194682        1.2516565014504561       -2.6558545826536967E-002
   1.2717469612916630        1.2627031119375463       -3.3613968932145383E-002
   1.2843385153638576        1.2754238601661647       -3.1914420125042649E-002
   1.2969300694360524        1.2871543838413542       -3.4316261946128426E-002
   1.3095216235082470        1.2987739647568550       -3.7011882684548768E-002
   1.3221131775804416        1.3102811171756463       -3.9972131884692931E-002
   1.3347047316526364        1.3210920188815056       -4.7145581239447364E-002
   1.3472962857248310        1.3329278206038750       -4.6622033381595568E-002
   1.3598878397970258        1.3440488358925515       -5.0304827036628169E-002
   1.3724793938692204        1.3550227187057959       -5.4225002304589764E-002
   1.3850709479414152        1.3652188542882018       -6.2236731676800820E-002
   1.3976625020136098        1.3764646910592597       -6.2864350090905963E-002
   1.4102540560858043        1.3869263443557616       -6.7532984228178133E-002
   1.4228456101579992        1.3971838763967594       -7.2538867940114646E-002
   1.4354371642301937        1.4072393666996357       -7.7807450475536388E-002
   1.4480287183023886        1.4170775085893528       -8.3359650923926346E-002
   1.4606202723745831        1.4266849448298475       -8.9207545474916591E-002
   1.4732118264467777        1.4360506952882957       -9.5353750490160302E-002
   1.4858033805189725        1.4451611035457512      -0.10180916565693893     
   1.4983949345911671        1.4533270570865990      -0.11247372097577019     
   1.5109864886633619        1.4625700299259983      -0.11565846351604187     
   1.5235780427355565        1.4701602879138644      -0.12698267063552626     
   1.5361695968077513        1.4788135017054633      -0.13079097112083041     
   1.5487611508799459        1.4864681711229537      -0.13884698069600290     
   1.5613527049521405        1.4937965949998557      -0.14723442196026379     
   1.5739442590243353        1.5007895459855005      -0.15595280793361269     
   1.5865358130965299        1.5067490548896996      -0.16899517850904763     
   1.5991273671687247        1.5137231743014483      -0.17439746225674421     
   1.6117189212409193        1.5196460195190296      -0.18411194656659222     
   1.6243104753131141        1.5251935459481651      -0.19415243821872097     
   1.6369020293853087        1.5303575879237021      -0.20451560717143022     
   1.6494935834575033        1.5344573950163214      -0.21924257842437189     
   1.6620851375296981        1.5395016661507877      -0.22620091399006570     
   1.6746766916018927        1.5434699500223434      -0.23750916665372185     
   1.6872682456740875        1.5470230755680183      -0.24912845344868231     
   1.6998597997462821        1.5501597143023313      -0.26104424716937069     
   1.7124513538184769        1.5528741062616795      -0.27325123305173565     
   1.7250429078906715        1.5551565895421817      -0.28575158141727919     
   1.7376344619628661        1.5570092601935728      -0.29852842169040111     
   1.7502260160350609        1.5584317554407132      -0.31157325856992868     
   1.7628175701072555        1.5592067943752963      -0.32746786533126154     
   1.7754091241794503        1.5600779517171550      -0.33831264126402816     
   1.7880006782516449        1.5597506183394678      -0.35548303701119072     
   1.8005922323238395        1.5600914138694242      -0.36581593946344271     
   1.8131837863960343        1.5587798861342024      -0.38301524022172367     
   1.8257753404682289        1.5575860095907081      -0.39734099567802711     
   1.8383668945404237        1.5566798485872171      -0.40888382311374472     
   1.8509584486126183        1.5547357013175456      -0.42352284911354210     
   1.8635500026848131        1.5523786282557750      -0.43830578364552747     
   1.8761415567570077        1.5496127941488158      -0.45322134558341376     
   1.8887331108292023        1.5453920964125245      -0.47241332883012682     
   1.9013246649013971        1.5428882076601276      -0.48338170470203251     
   1.9139162189735917        1.5389452183606713      -0.49859405815360108     
   1.9265077730457865        1.5333083641559009      -0.51855435941151262     
   1.9390993271179811        1.5299512907145258      -0.52918885047350872     
   1.9516908811901759        1.5249239335471101      -0.54453238668827675     
   1.9642824352623705        1.5195652138460591      -0.55987414397561419     
   1.9768739893345650        1.5138698782152065      -0.57521330884166955     
   1.9894655434067599        1.5078613796098868      -0.59051699190138707     
   2.0020570974789544        1.4994042192489221      -0.61175975065862054     
   2.0146486515511492        1.4948715929765495      -0.62101242092805442     
   2.0272402056233441        1.4878270924965113      -0.63624074374912376     
   2.0398317596955384        1.4803163579544130      -0.65153224289855705     
   2.0524233137677332        1.4722185623561690      -0.66698741204815237     
   2.0650148678399280        1.4634309223292901      -0.68269781432453747     
   2.0776064219121224        1.4540433642070691      -0.69860199357952546     
   2.0901979759843172        1.4445509149750797      -0.71431243533389777     
   2.1027895300565120        1.4347251297717736      -0.73354305162880129     
   2.1153810841287068        1.4267200598379115      -0.74394183713054407     
   2.1279726382009012        1.4176616221829215      -0.75836836851905975     
   2.1405641922730960        1.4080379978271782      -0.77290272192648357     
   2.1531557463452908        1.3955713766523492      -0.79428230077566808     
   2.1657473004174852        1.3848862394829851      -0.80911502994395790     
   2.1783388544896800        1.3763527507717359      -0.81674648674435424     
   2.1909304085618748        1.3627567018961824      -0.83819243133630716     
   2.2035219626340692        1.3536769365958858      -0.84551722517621875     
   2.2161135167062640        1.3419918626082774      -0.85966131804863721     
   2.2287050707784588        1.3300978786325068      -0.87362571481091689     
   2.2412966248506536        1.3180034626627850      -0.88740364661012161     
   2.2538881789228480        1.3057243273261829      -0.90098380402408329     
   2.2664797329950428        1.2932565748026090      -0.91436852014560699     
   2.2790712870672376        1.2806109738092795      -0.92755004040665168     
   2.2916628411394320        1.2677910863863533      -0.94052574032997072     
   2.3042543952116268        1.2530780310069212      -0.95938072733974200     
   2.3168459492838216        1.2416571597190778      -0.96584092448613867     
   2.3294375033560164        1.2283537321006446      -0.97817415302292399     
   2.3420290574282108        1.2133082595615980      -0.99615604720785544     
   2.3546206115004056        1.2012918493063740       -1.0021821955573649     
   2.3672121655726004        1.1875698362287663       -1.0138375289981105     
   2.3798037196447948        1.1721524195784343       -1.0309974712183054     
   2.3923952737169896        1.1596985737049881       -1.0364767792763778     
   2.4049868277891844        1.1455621360739199       -1.0474527471738120     
   2.4175783818613792        1.1312848203653578       -1.0582017581457346     
   2.4301699359335736        1.1151968727812687       -1.0744103696252445     
   2.4427614900057684        1.1005639279282142       -1.0847226336854450     
   2.4553530440779632        1.0875081255008738       -1.0891021335976601     
   2.4679445981501575        1.0724742200570225       -1.0989941935258285     
   2.4805361522223524        1.0556429321449423       -1.1142440721454490     
   2.4931277062945472        1.0414126064725828       -1.1183058801776176     
   2.5057192603667420        1.0256640671052994       -1.1276422424059236     
   2.5183108144389363        1.0093055933737543       -1.1416444905906884     
   2.5309023685111312       0.99449132687790032       -1.1453697546937924     
   2.5434939225833260       0.97875912248390196       -1.1538688713849810     
   2.5560854766555203       0.96283355714833319       -1.1621653260570788     
   2.5686770307277151       0.94673517371043892       -1.1702531102747686     
   2.5812685847999099       0.93049160629367433       -1.1781222820972490     
   2.5938601388721048       0.91410733919817766       -1.1857717440169457     
   2.6064516929442991       0.89664534903041115       -1.1982988079369439     
   2.6190432470164939       0.88096825683754354       -1.2003944259297372     
   2.6316348010886887       0.86327923776160875       -1.2124155501502352     
   2.6442263551608831       0.84725205663772629       -1.2141417869076234     
   2.6568179092330779       0.83015702015928305       -1.2206918763172756     
   2.6694094633052727       0.81289513076386299       -1.2270278499266929     
   2.6820010173774675       0.79544611429574341       -1.2331579140030655     
   2.6945925714496619       0.77786879187618718       -1.2390713551732460     
   2.7071841255218567       0.76019836331328505       -1.2447570399584669     
   2.7197756795940515       0.74177650376402038       -1.2550096670468609     
   2.7323672336662459       0.72433684277444899       -1.2555068518188812     
   2.7449587877384407       0.70614850786813610       -1.2605704243064748     
   2.7575503418106355       0.68778869217816430       -1.2654264163737590     
   2.7701418958828303       0.66924284458723160       -1.2700779348089068     
   2.7827334499550247       0.65051182968665078       -1.2745242196838173     
   2.7953250040272195       0.63118525203025411       -1.2833735758635099     
   2.8079165580994143       0.61247040709423051       -1.2828084925682364     
   2.8205081121716087       0.59314922911037116       -1.2866472441776078     
   2.8330996662438035       0.57361747583519374       -1.2902848005963792     
   2.8456912203159983       0.55386513454357000       -1.2937221656038411     
   2.8582827743881927       0.53388176866812198       -1.2969601122337888     
   2.8708743284603875       0.51366995800887394       -1.2999970514639143     
   2.8834658825325823       0.49321190667852083       -1.3028345488525555     
   2.8960574366047771       0.47250025077708807       -1.3054720016315549     
   2.9086489906769715       0.45151939055027829       -1.3079098289063096     
   2.9212405447491663       0.43027619174379933       -1.3101447647729347     
   2.9338320988213611       0.40874164516209310       -1.3121785860015904     
   2.9464236528935555       0.38691975061725564       -1.3140079451360287     
   2.9590152069657503       0.36478473076022883       -1.3156329313533368     
   2.9716067610379451       0.34233453741812359       -1.3170504738588775     
   2.9841983151101399       0.31955243304483666       -1.3182585394318407     
   2.9967898691823343       0.29643233905324862       -1.3192538939754299     
   3.0093814232545291       0.27295110813799339       -1.3200341608568167     
   3.0219729773267239       0.24909895110368790       -1.3205953459751028     
   3.0345645313989182       0.22476866510083349       -1.3252496711174553     
   3.0471560854711131       0.20020773525549454       -1.3210442249307306     
   3.0597476395433079       0.17513830429368218       -1.3209218132709168     
   3.0723391936155027       0.14962226355218558       -1.3205608264487370     
   3.0849307476876970       0.12359436096838482       -1.3242507944226309     
   3.0975223017598918        9.7163500391763510E-002  -1.3190959253233490     
   3.1101138558320867        7.0162251564558895E-002  -1.3179764622752317     
   3.1227054099042810        4.2578793015677845E-002  -1.3165870320550483     
   3.1352969639764758        1.4341315675927389E-002  -1.3149162430633932     
